cluster_id,original_time,note,velocity
0,0.0,42,34
1,0.3666,38,15
2,0.6836,45,23
3,1.0086,41,26
4,1.6282,42,50
5,1.9468,49,35
6,2.2496,51,42
7,2.6018,42,13
8,2.9164,41,20
9,3.2285,45,29
10,3.5204,38,18
11,3.8515,42,24
12,4.2065,49,20
13,4.5765,42,40
